# multipoles
# s[mm] polynom_b[n=0][T/m^n] polynom_b[n=1][T/m^n] polynom_b[n=2][T/m^n] polynom_b[n=3][T/m^n] 
+0.0000000000000000e+00 -2.6983682383539641e-04 +4.6739994486001852e-07 +1.8184899496441326e-03 -7.6584510006424400e-01 
+1.0000000000000001e-01 -2.6983682931998500e-04 +4.1927436499026550e-07 +1.8487517532673802e-03 -7.6587278371830347e-01 
+2.0000000000000001e-01 -2.6983683419253717e-04 +3.7032492590271141e-07 +1.8790203365978996e-03 -7.6589822154677945e-01 
+3.0000000000000004e-01 -2.6983683844110455e-04 +3.2055257212083471e-07 +1.9092954152822323e-03 -7.6592150834462680e-01 
+4.0000000000000002e-01 -2.6983684205373904e-04 +2.6995824789356148e-07 +1.9395767049862015e-03 -7.6594273889180897e-01 
+5.0000000000000000e-01 -2.6983684501849216e-04 +2.1854289741888794e-07 +1.9698639213447796e-03 -7.6596200796759062e-01 
+5.9999999999999998e-01 -2.6983684732341501e-04 +1.6630746514721112e-07 +2.0001567799929399e-03 -7.6597941036422723e-01 
+6.9999999999999996e-01 -2.6983684895655916e-04 +1.1325289533687566e-07 +2.0304549965887921e-03 -7.6599504086307613e-01 
+7.9999999999999993e-01 -2.6983684990597564e-04 +5.9380132367624338e-08 +2.0607582867634530e-03 -7.6600899425491065e-01 
+8.9999999999999991e-01 -2.6983685015971587e-04 +4.6901204677619183e-09 +2.0910663661634641e-03 -7.6602136532091480e-01 
+9.9999999999999989e-01 -2.6983684970583057e-04 -5.0816195964579093e-08 +2.1213789504160854e-03 -7.6603224885116472e-01 
+1.0999999999999999e+00 -2.6983684853237075e-04 -1.0713787245182866e-07 +2.1516957551562894e-03 -7.6604173964236211e-01 
+1.2000000000000000e+00 -2.6983684662738714e-04 -1.6427396472931425e-07 +2.1820164960074805e-03 -7.6604993247978892e-01 
+1.3000000000000000e+00 -2.6983684397893039e-04 -2.2222352847201300e-07 +2.2123408886007738e-03 -7.6605692215082000e-01 
+1.4000000000000001e+00 -2.6983684057505105e-04 -2.8098561923488559e-07 +2.2426686485595738e-03 -7.6606280345076194e-01 
+1.5000000000000002e+00 -2.6983683640379970e-04 -3.4055929259373399e-07 +2.2729994915111403e-03 -7.6606767117439989e-01 
+1.6000000000000003e+00 -2.6983683145322666e-04 -4.0094360416743172e-07 +2.3033331330673079e-03 -7.6607162011399055e-01 
+1.7000000000000004e+00 -2.6983682571138200e-04 -4.6213760974803215e-07 +2.3336692888399116e-03 -7.6607474505368411e-01 
+1.8000000000000005e+00 -2.6983681916631602e-04 -5.2414036454363091e-07 +2.3640076744562114e-03 -7.6607714080849043e-01 
+1.9000000000000006e+00 -2.6983681180607887e-04 -5.8695092441022040e-07 +2.3943480055318980e-03 -7.6607890215950813e-01 
+2.0000000000000004e+00 -2.6983680361872009e-04 -6.5056834473490199e-07 +2.4246899976479558e-03 -7.6608012391320501e-01 
+2.1000000000000005e+00 -2.6983679459228988e-04 -7.1499168130947898e-07 +2.4550333664432136e-03 -7.6608090085547520e-01 
+2.2000000000000006e+00 -2.6983678471483784e-04 -7.8021998940015080e-07 +2.4853778275063681e-03 -7.6608132779871352e-01 
+2.3000000000000007e+00 -2.6983677397441345e-04 -8.4625232476704711e-07 +2.5157230964338289e-03 -7.6608149953221605e-01 
+2.4000000000000008e+00 -2.6983676235906625e-04 -9.1308774288096476e-07 +2.5460688888335747e-03 -7.6608151085861342e-01 
+2.5000000000000009e+00 -2.6983674985685236e-04 -9.8072530383862231e-07 +2.5764149216825770e-03 -7.6608145612100786e-01 
+2.6000000000000010e+00 -2.6983673645631029e-04 -1.0491644028032956e-06 +2.6067610124997798e-03 -7.6608139615162207e-01 
+2.7000000000000011e+00 -2.6983672214677865e-04 -1.1184049912223012e-06 +2.6371071455552541e-03 -7.6608133617337815e-01 
+2.8000000000000012e+00 -2.6983670691767194e-04 -1.1884470723349420e-06 +2.6674533208644251e-03 -7.6608127620069366e-01 
+2.9000000000000012e+00 -2.6983669075840455e-04 -1.2592906497791697e-06 +2.6977995384388619e-03 -7.6608121622959158e-01 
+3.0000000000000013e+00 -2.6983667365839005e-04 -1.3309357271653609e-06 +2.7281457982592829e-03 -7.6608115625504891e-01 
+3.1000000000000014e+00 -2.6983665560704274e-04 -1.4033823079896297e-06 +2.7584921003411134e-03 -7.6608109627954279e-01 
+3.2000000000000015e+00 -2.6983663659361937e-04 -1.4766305046508028e-06 +2.7888384119827609e-03 -7.6608102541280265e-01 
+3.3000000000000016e+00 -2.6983661660593810e-04 -1.5506814288619782e-06 +2.8191844007694525e-03 -7.6608083284180439e-01 
+3.4000000000000017e+00 -2.6983659563104397e-04 -1.6255367290151880e-06 +2.8495295732233594e-03 -7.6608035407947206e-01 
+3.5000000000000018e+00 -2.6983657365597463e-04 -1.7011980587015032e-06 +2.8798734343434061e-03 -7.6607942411877628e-01 
+3.6000000000000019e+00 -2.6983655066776721e-04 -1.7776670716621998e-06 +2.9102154890899550e-03 -7.6607787794457383e-01 
+3.7000000000000020e+00 -2.6983652665345898e-04 -1.8549454213766437e-06 +2.9405552424272233e-03 -7.6607555055611087e-01 
+3.8000000000000020e+00 -2.6983650160008728e-04 -1.9330347615562831e-06 +2.9708921993387115e-03 -7.6607227693667534e-01 
+3.9000000000000021e+00 -2.6983647549468889e-04 -2.0119367458747872e-06 +3.0012258647732120e-03 -7.6606789207513826e-01 
+4.0000000000000018e+00 -2.6983644832430056e-04 -2.0916530280321857e-06 +3.0315557436718047e-03 -7.6606223095391490e-01 
+4.1000000000000014e+00 -2.6983642007595956e-04 -2.1721852616745829e-06 +3.0618813410218460e-03 -7.6605512856082925e-01 
+4.2000000000000011e+00 -2.6983639073670186e-04 -2.2535351005637050e-06 +3.0922021617258515e-03 -7.6604641987472233e-01 
+4.3000000000000007e+00 -2.6983636029356459e-04 -2.3357041984168039e-06 +3.1225177107634663e-03 -7.6603593987844787e-01 
+4.4000000000000004e+00 -2.6983661273682636e-04 -2.6159186828313815e-06 +3.2119948352262841e-03 -7.4630107616430452e-01 
+4.5000000000000000e+00 -2.6983836317697921e-04 -3.9380159407410031e-06 +3.6137837599917316e-03 -6.2245809039166400e-01 
+4.5999999999999996e+00 -2.6983985898703386e-04 -4.2503821372002766e-06 +4.1856764392737616e-03 -5.1050021790849576e-01 
+4.6999999999999993e+00 -2.6983993636466876e-04 -2.9042717134989724e-06 +4.8082595161489288e-03 -4.5487336671655965e-01 
+4.7999999999999989e+00 -2.6983763010757737e-04 +5.1595560745308927e-07 +5.4096972374049175e-03 -4.8003089986918340e-01 
+4.8999999999999986e+00 -2.6983108480822267e-04 +6.6214777331574919e-06 +5.8664508579903598e-03 -6.1992593596822987e-01 
+4.9999999999999982e+00 -2.6981765414329839e-04 +1.4905511881127140e-05 +5.9937418899390854e-03 -8.5487321227387303e-01 
+5.0999999999999979e+00 -2.6979785556850288e-04 +2.3651720899590980e-05 +5.8034711615698722e-03 -1.1040991053365483e+00 
+5.1999999999999975e+00 -2.6977137453906201e-04 +3.1867841580400229e-05 +5.2801442372660164e-03 -1.3210751146521198e+00 
+5.2999999999999972e+00 -2.6973728919337902e-04 +3.8066624181580775e-05 +4.3830280020687824e-03 -1.4358595381305534e+00 
+5.3999999999999968e+00 -2.6969487969127925e-04 +3.9378323687897898e-05 +3.1564555882598543e-03 -1.3211480589799760e+00 
+5.4999999999999964e+00 -2.6964833555681166e-04 +3.6810936582494721e-05 +1.9021705847817212e-03 -1.0400549327276609e+00 
+5.5999999999999961e+00 -2.6959944288653916e-04 +3.1206434726489838e-05 +7.9226781239359503e-04 -6.5119616991072959e-01 
+5.6999999999999957e+00 -2.6955017263762118e-04 +2.3581758319141855e-05 +3.6722612928024143e-05 -2.2817721169030281e-01 
+5.7999999999999954e+00 -2.6950661415867810e-04 +2.0112043642337397e-05 +3.7439432421339377e-04 -1.7927040289190879e-01 
+5.8999999999999950e+00 -2.6946367456030692e-04 +1.7233386871619571e-05 +7.4208611529764359e-04 -1.4980011610022645e-01 
+5.9999999999999947e+00 -2.6942116799879662e-04 +1.4790308368900562e-05 +1.0990843457685062e-03 -1.2593111045027561e-01 
+6.0999999999999943e+00 -2.6937910371798834e-04 +1.2763561341786936e-05 +1.4455003838455200e-03 -1.0744913769722177e-01 
+6.1999999999999940e+00 -2.6933748990701131e-04 +1.1133923701605117e-05 +1.7814073842328758e-03 -9.4139868205908056e-02 
+6.2999999999999936e+00 -2.6929633370157574e-04 +9.8822006763549664e-06 +2.1068402924423516e-03 -8.5788892424910543e-02 
+6.3999999999999932e+00 -2.6925564118534861e-04 +8.9892274323357561e-06 +2.4217958516807008e-03 -8.2181723199076989e-02 
+6.4999999999999929e+00 -2.6921541739141045e-04 +8.4358717040623415e-06 +2.7262326122050838e-03 -8.3103798936175172e-02 
+6.5999999999999925e+00 -2.6917566630379428e-04 +8.2030364326538104e-06 +3.0200709432005321e-03 -8.8340487602959122e-02 
+6.6999999999999922e+00 -2.6913639085910664e-04 +8.2716624128380937e-06 +3.3031930472102989e-03 -9.7677091576556130e-02 
+6.7999999999999918e+00 -2.6909759294823065e-04 +8.6227309475385734e-06 +3.5754429771113778e-03 -1.1089885329774116e-01 
+6.8999999999999915e+00 -2.6905927341811116e-04 +9.2372665126060226e-06 +3.8366266555773512e-03 -1.2779096184306465e-01 
+6.9999999999999911e+00 -2.6902143207362155e-04 +1.0096339428000119e-05 +4.0865118970709793e-03 -1.4813856025049679e-01 
+7.0999999999999908e+00 -2.6898406767951293e-04 +1.1181068538950901e-05 +4.3248284323935361e-03 -1.7172675375398622e-01 
+7.1999999999999904e+00 -2.6894717796244433e-04 +1.2472623904785674e-05 +4.5512679357021836e-03 -1.9834061882924195e-01 
+7.2999999999999901e+00 -2.6891075961309652e-04 +1.3952229496513833e-05 +4.7654840541380781e-03 -2.2776521308853873e-01 
+7.3999999999999897e+00 -2.6887480828836647e-04 +1.5601165902399642e-05 +4.9670924399032408e-03 -2.5978558600497126e-01 
+7.4999999999999893e+00 -2.6883931861364425e-04 +1.7400773042896368e-05 +5.1556707848941629e-03 -2.9418679051563162e-01 
+7.5999999999999890e+00 -2.6880428418517245e-04 +1.9332452892881757e-05 +5.3307588578998706e-03 -3.3075389541674238e-01 
+7.6999999999999886e+00 -2.6876969757248570e-04 +2.1377672213213558e-05 +5.4918585441986138e-03 -3.6927199863842142e-01 
+7.7999999999999883e+00 -2.6873555032093480e-04 +2.3517965290129427e-05 +5.6384338878578445e-03 -4.0952624133920768e-01 
+7.8999999999999879e+00 -2.6870183295429136e-04 +2.5734936683808389e-05 +5.7699111364443835e-03 -4.5130182287044512e-01 
+7.9999999999999876e+00 -2.6866853497743367e-04 +2.8010263984714972e-05 +5.8856787882527739e-03 -4.9438401655512670e-01 
+8.0999999999999872e+00 -2.6863564487911732e-04 +3.0325700578161481e-05 +5.9850876421790634e-03 -5.3855818629614016e-01 
+8.1999999999999869e+00 -2.6860315013482402e-04 +3.2663078418609174e-05 +6.0674508499238070e-03 -5.8360980409232521e-01 
+8.2999999999999865e+00 -2.6857103720969610e-04 +3.5004310810978604e-05 +6.1320439709446270e-03 -6.2932446832293687e-01 
+8.3999999999999861e+00 -2.6853929156154995e-04 +3.7331395200920755e-05 +6.1781050297534112e-03 -6.7548792290215298e-01 
+8.4999999999999858e+00 -2.6850789894699992e-04 +3.9625511094864687e-05 +6.2051060395951780e-03 -7.2179558937946919e-01 
+8.5999999999999854e+00 -2.6847685303495135e-04 +4.1861871791616915e-05 +6.2143743057104317e-03 -7.6732317680456330e-01 
+8.6999999999999851e+00 -2.6844614871774779e-04 +4.4017303868884599e-05 +6.2084822357386911e-03 -8.1097104521917185e-01 
+8.7999999999999847e+00 -2.6841577487001010e-04 +4.6076331838878970e-05 +6.1904121792849204e-03 -8.5187115608539321e-01 
+8.8999999999999844e+00 -2.6838570944993684e-04 +4.8032963361217320e-05 +6.1629447643913237e-03 -8.8954846784268793e-01 
+8.9999999999999840e+00 -2.6835591784575829e-04 +4.9888606368617353e-05 +6.1283302340188108e-03 -9.2386162510160219e-01 
+9.0999999999999837e+00 -2.6832635413561601e-04 +5.1648810982086381e-05 +6.0882397316685205e-03 -9.5486213957419019e-01 
+9.1999999999999833e+00 -2.6829696327405921e-04 +5.3320667743004165e-05 +6.0438362209900053e-03 -9.8267499480026188e-01 
+9.2999999999999829e+00 -2.6826768391099379e-04 +5.4910912149361652e-05 +5.9959178890361051e-03 -1.0074089580898362e+00 
+9.3999999999999826e+00 -2.6823845148480014e-04 +5.6425272970753012e-05 +5.9450962943544336e-03 -1.0291257320581688e+00 
+9.4999999999999822e+00 -2.6820920038327388e-04 +5.7868811042109593e-05 +5.8919165073242647e-03 -1.0478562140074119e+00 
+9.5999999999999819e+00 -2.6817986496804045e-04 +5.9246294958628541e-05 +5.8369082534303739e-03 -1.0636178045783622e+00 
+9.6999999999999815e+00 -2.6815037988387819e-04 +6.0562375203852546e-05 +5.7806035944279440e-03 -1.0764232454990548e+00 
+9.7999999999999812e+00 -2.6812067999593174e-04 +6.1821378882159387e-05 +5.7235766468523089e-03 -1.0862795760375512e+00 
+9.8999999999999808e+00 -2.6809070160762764e-04 +6.3028245685379058e-05 +5.6666757295830029e-03 -1.0932726915253013e+00 
+9.9999999999999805e+00 -2.6806038222390512e-04 +6.4188409631739081e-05 +5.6109629803261915e-03 -1.0975509040132740e+00 
+1.0099999999999980e+01 -2.6802965966597807e-04 +6.5307185645898912e-05 +5.5575308697170568e-03 -1.0992637810889603e+00 
+1.0199999999999980e+01 -2.6799847204503168e-04 +6.6389752646192309e-05 +5.5074976730284733e-03 -1.0985606364401574e+00 
+1.0299999999999979e+01 -2.6796675775723691e-04 +6.7441151468313932e-05 +5.4620073930677525e-03 -1.0955905041010909e+00 
+1.0399999999999979e+01 -2.6793445547870163e-04 +6.8466282781213855e-05 +5.4222296804433672e-03 -1.0905021118789184e+00 
+1.0499999999999979e+01 -2.6790150337353038e-04 +6.9470451405806381e-05 +5.3891958278903147e-03 -1.0834984950891104e+00 
+1.0599999999999978e+01 -2.6786783011429060e-04 +7.0465549342190427e-05 +5.3619164534819000e-03 -1.0754605103536861e+00 
+1.0699999999999978e+01 -2.6783335949803506e-04 +7.1463947827567548e-05 +5.3375704170664029e-03 -1.0676457261236250e+00 
+1.0799999999999978e+01 -2.6779802070406062e-04 +7.2468788560645897e-05 +5.3126238811687281e-03 -1.0610679565207459e+00 
+1.0899999999999977e+01 -2.6776175601387058e-04 +7.3470328990237152e-05 +5.2837052098747240e-03 -1.0562181965302939e+00 
+1.0999999999999977e+01 -2.6772452429532525e-04 +7.4447780285477738e-05 +5.2481136578056923e-03 -1.0530964782397305e+00 
+1.1099999999999977e+01 -2.6768630197686094e-04 +7.5372694187434704e-05 +5.2040442137393375e-03 -1.0513502029402717e+00 
+1.1199999999999976e+01 -2.6764708283609192e-04 +7.6212791668507437e-05 +5.1506697572332658e-03 -1.0504474594075670e+00 
+1.1299999999999976e+01 -2.6760687696838434e-04 +7.6935999926987369e-05 +5.0881141034889643e-03 -1.0498678691233547e+00 
+1.1399999999999975e+01 -2.6756570862978619e-04 +7.7513798648421513e-05 +5.0173055216276236e-03 -1.0492607115015868e+00 
+1.1499999999999975e+01 -2.6752361437697766e-04 +7.7923591563044798e-05 +4.9398051126989086e-03 -1.0485510417871116e+00 
+1.1599999999999975e+01 -2.6748064127955057e-04 +7.8150522754827194e-05 +4.8575889221322147e-03 -1.0480091407998562e+00 
+1.1699999999999974e+01 -2.6743684452410139e-04 +7.8188611318309319e-05 +4.7726901851937922e-03 -1.0482637392859417e+00 
+1.1799999999999974e+01 -2.6739228221969220e-04 +7.8038664894911617e-05 +4.6865016046288184e-03 -1.0501095260295690e+00 
+1.1899999999999974e+01 -2.6734700594476305e-04 +7.7699385368840953e-05 +4.5985932669460093e-03 -1.0539039191096242e+00 
+1.1999999999999973e+01 -2.6730105850075427e-04 +7.7163935667187711e-05 +4.5067424927860509e-03 -1.0594232828389611e+00 
+1.2099999999999973e+01 -2.6725448182601444e-04 +7.6425418913264687e-05 +4.4085844382425387e-03 -1.0664119971317936e+00 
+1.2199999999999973e+01 -2.6720731747920237e-04 +7.5477211156997617e-05 +4.3017109946507206e-03 -1.0746154198492235e+00 
+1.2299999999999972e+01 -2.6715960664896191e-04 +7.4312965059266701e-05 +4.1836709802080228e-03 -1.0837799455516823e+00 
+1.2399999999999972e+01 -2.6711139016369735e-04 +7.2926613575506497e-05 +4.0519703373559385e-03 -1.0936530653359851e+00 
+1.2499999999999972e+01 -2.6706270868542684e-04 +7.1312245877156117e-05 +3.9041106650163438e-03 -1.1039706514861081e+00 
+1.2599999999999971e+01 -2.6701360730013577e-04 +6.9460932463882180e-05 +3.7385442727811517e-03 -1.1141389224103930e+00 
+1.2699999999999971e+01 -2.6696413531579819e-04 +6.7361804928604423e-05 +3.5548783278997456e-03 -1.1232428699453039e+00 
+1.2799999999999971e+01 -2.6691434025018505e-04 +6.5007775666664616e-05 +3.3530790725567359e-03 -1.1304429690897337e+00 
+1.2899999999999970e+01 -2.6686426622028780e-04 +6.2395367603137507e-05 +3.1330564837104089e-03 -1.1350358012810045e+00 
+1.2999999999999970e+01 -2.6681395607182248e-04 +5.9522304256141030e-05 +2.8946274893658186e-03 -1.1363646954126954e+00 
+1.3099999999999969e+01 -2.6676345505170790e-04 +5.6385514468935955e-05 +2.6376592867052573e-03 -1.1337327076606916e+00 
+1.3199999999999969e+01 -2.6671281562838726e-04 +5.2980198123064610e-05 +2.3623305748111888e-03 -1.1263584770224966e+00 
+1.3299999999999969e+01 -2.6666210212899008e-04 +4.9301224273089162e-05 +2.0694011473662063e-03 -1.1134423186559108e+00 
+1.3399999999999968e+01 -2.6661139272445364e-04 +4.5345944270088662e-05 +1.7603012552961084e-03 -1.0942992123855013e+00 
+1.3499999999999968e+01 -2.6656077927810249e-04 +4.1116637149725243e-05 +1.4370676075938123e-03 -1.0684700901913293e+00 
+1.3599999999999968e+01 -2.6651036520228548e-04 +3.6622047724686171e-05 +1.1021405236494863e-03 -1.0357844254587945e+00 
+1.3699999999999967e+01 -2.6646026082116040e-04 +3.1876257739638806e-05 +7.5802743284936148e-04 -9.9629014559100937e-01 
+1.3799999999999967e+01 -2.6641057904752929e-04 +2.6895190025269086e-05 +4.0713978398265402e-04 -9.5009353699272103e-01 
+1.3899999999999967e+01 -2.6636143513716535e-04 +2.1695742638833927e-05 +5.2114747605266067e-05 -8.9738934230920175e-01 
+1.3999999999999966e+01 -2.6631294790993327e-04 +1.6296209241041077e-05 -3.0381211083900392e-04 -8.3854946307059519e-01 
+1.4099999999999966e+01 -2.6626523744825736e-04 +1.0714673755307194e-05 -6.5728044142272649e-04 -7.7396413899519911e-01 
+1.4199999999999966e+01 -2.6621842479612290e-04 +4.9688061069221102e-06 -1.0048650488693931e-03 -7.0402198190266385e-01 
+1.4299999999999965e+01 -2.6617263194418325e-04 -9.2414325046172533e-07 -1.3430762031182814e-03 -6.2910988690212244e-01 
+1.4399999999999965e+01 -2.6612798181472122e-04 -6.9473488083699514e-06 -1.6683599575981027e-03 -5.4961294213016909e-01 
+1.4499999999999964e+01 -2.6608459832871051e-04 -1.3084472598299450e-05 -1.9770813393551454e-03 -4.6590862491973112e-01 
+1.4599999999999964e+01 -2.6604261263095299e-04 -1.9324003328803236e-05 -2.2642245843381465e-03 -3.7793334233071629e-01 
+1.4699999999999964e+01 -2.6600216668379127e-04 -2.5660085534955958e-05 -2.5221920703621756e-03 -2.8492017208958087e-01 
+1.4799999999999963e+01 -2.6596339955642243e-04 -3.2077092000151900e-05 -2.7419158981534242e-03 -1.8627309165271499e-01 
+1.4899999999999963e+01 -2.6592643317669562e-04 -3.8540139313120983e-05 -2.9141164857697153e-03 -8.2148171807441092e-02 
+1.4999999999999963e+01 -2.6589136001348878e-04 -4.4991847941343866e-05 -3.0303695723691896e-03 +2.6309164373257202e-02 
+1.5099999999999962e+01 -2.6585823180289762e-04 -5.1353554540610657e-05 -3.0840630004824515e-03 +1.3696630929071668e-01 
+1.5199999999999962e+01 -2.6582704923638060e-04 -5.7532060203760452e-05 -3.0712377186627561e-03 +2.4699579925845899e-01 
+1.5299999999999962e+01 -2.6579775842080670e-04 -6.3431333868304134e-05 -2.9909047666912664e-03 +3.5342635087315871e-01 
+1.5399999999999961e+01 -2.6577025187999247e-04 -6.8963639528200047e-05 -2.8449449472493270e-03 +4.5366899654234538e-01 
+1.5499999999999961e+01 -2.6574437286213732e-04 -7.4059137272277018e-05 -2.6377030072767616e-03 +5.4596082824026382e-01 
+1.5599999999999961e+01 -2.6571992400809035e-04 -7.8672857815300409e-05 -2.3751799091535019e-03 +6.2965830214063079e-01 
+1.5699999999999960e+01 -2.6569668222783103e-04 -8.2783292374686239e-05 -2.0638041420936778e-03 +7.0509444495550810e-01 
+1.5799999999999960e+01 -2.6567441312956482e-04 -8.6384420666962695e-05 -1.7093178801327704e-03 +7.7311233035483518e-01 
+1.5899999999999959e+01 -2.6565288324334208e-04 -8.9475089027221989e-05 -1.3159275140917509e-03 +8.3448571810915784e-01 
+1.5999999999999959e+01 -2.6563186806357459e-04 -9.2048348620522150e-05 -8.8599825051377458e-04 +8.8939839894301587e-01 
+1.6099999999999959e+01 -2.6561114520148903e-04 -9.4095878863498429e-05 -4.2157262375626912e-04 +9.3792264881186616e-01 
+1.6199999999999960e+01 -2.6559049279514498e-04 -9.5609097057271995e-05 +7.5296409343763088e-05 +9.8013026587882390e-01 
+1.6299999999999962e+01 -2.6556968951885863e-04 -9.6579157342489147e-05 +6.0254558107164231e-04 +1.0160925391716735e+00 
