# multipoles
# s[mm] polynom_b[n=0][T/m^n] polynom_b[n=1][T/m^n] polynom_b[n=2][T/m^n] polynom_b[n=3][T/m^n] 
+0.0000000000000000e+00 -7.9209735510801923e-04 +1.3720375701603875e-06 +5.3381190118135299e-03 -2.2481137657981529e+00 
+1.0000000000000001e-01 -7.9209737120785359e-04 +1.2307664712839968e-06 +5.4269515672912740e-03 -2.2481950302727296e+00 
+2.0000000000000001e-01 -7.9209738551107409e-04 +1.0870769609128123e-06 +5.5158040243257862e-03 -2.2482697022409583e+00 
+3.0000000000000004e-01 -7.9209739798260820e-04 +9.4097181009166632e-07 +5.6046755483014693e-03 -2.2483380598908482e+00 
+4.0000000000000002e-01 -7.9209740858738047e-04 +7.9245379160417814e-07 +5.6935653044330485e-03 -2.2484003814933837e+00 
+5.0000000000000000e-01 -7.9209741729031782e-04 +6.4152567694697139e-07 +5.7824724581049250e-03 -2.2484569452641181e+00 
+5.9999999999999998e-01 -7.9209742405634577e-04 +4.8819023859287795e-07 +5.8713961745781003e-03 -2.2485080294639310e+00 
+6.9999999999999996e-01 -7.9209742885038778e-04 +3.3245024780066942e-07 +5.9603356190827250e-03 -2.2485539122919849e+00 
+7.9999999999999993e-01 -7.9209743163736980e-04 +1.7430847757943921e-07 +6.0492899569106490e-03 -2.2485948720457749e+00 
+8.9999999999999991e-01 -7.9209743238221571e-04 +1.3767699122919920e-08 +6.1382583533382985e-03 -2.2486311869216751e+00 
+9.9999999999999989e-01 -7.9209743104985029e-04 -1.4916931488547120e-07 +6.2272399736266739e-03 -2.2486631351997497e+00 
+1.0999999999999999e+00 -7.9209742760519644e-04 -3.1449979248836341e-07 +6.3162339830059259e-03 -2.2486909951210037e+00 
+1.2000000000000000e+00 -7.9209742201317816e-04 -4.8222096150485920e-07 +6.4052395467062029e-03 -2.2487150449390003e+00 
+1.3000000000000000e+00 -7.9209741423871827e-04 -6.5233004982807861e-07 +6.4942558299730816e-03 -2.2487355629066048e+00 
+1.4000000000000001e+00 -7.9209740424673956e-04 -8.2482428524836851e-07 +6.5832819980058610e-03 -2.2487528272850530e+00 
+1.5000000000000002e+00 -7.9209739200216463e-04 -9.9970089537027569e-07 +6.6723172160501158e-03 -2.2487671163425560e+00 
+1.6000000000000003e+00 -7.9209737746991575e-04 -1.1769571081192328e-06 +6.7613606493205705e-03 -2.2487787083323281e+00 
+1.7000000000000004e+00 -7.9209736061491484e-04 -1.3565901509369903e-06 +6.8504114630011000e-03 -2.2487878815312943e+00 
+1.8000000000000005e+00 -7.9209734140208365e-04 -1.5385972520497890e-06 +6.9394688222910034e-03 -2.2487949141874486e+00 
+1.9000000000000006e+00 -7.9209731979634258e-04 -1.7229756385875768e-06 +7.0285318923587296e-03 -2.2488000845948015e+00 
+2.0000000000000004e+00 -7.9209729576261369e-04 -1.9097225383908281e-06 +7.1175998384344283e-03 -2.2488036710191261e+00 
+2.1000000000000005e+00 -7.9209726926581718e-04 -2.0988351791842334e-06 +7.2066718256556979e-03 -2.2488059517279413e+00 
+2.2000000000000006e+00 -7.9209724027087250e-04 -2.2903107884076105e-06 +7.2957470191447119e-03 -2.2488072050121239e+00 
+2.3000000000000007e+00 -7.9209720874270093e-04 -2.4841465937345233e-06 +7.3848245841470440e-03 -2.2488077091416332e+00 
+2.4000000000000008e+00 -7.9209717464622149e-04 -2.6803398226508938e-06 +7.4739036857540183e-03 -2.2488077424073523e+00 
+2.5000000000000009e+00 -7.9209713794637347e-04 -2.8788877162387930e-06 +7.5629834932217817e-03 -2.2488075817384803e+00 
+2.6000000000000010e+00 -7.9209709860951114e-04 -3.0797884991213218e-06 +7.6520634707841016e-03 -2.2488074057034320e+00 
+2.7000000000000011e+00 -7.9209705660433967e-04 -3.2830420280987248e-06 +7.7411435723656694e-03 -2.2488072296706410e+00 
+2.8000000000000012e+00 -7.9209701189978537e-04 -3.4886483135844012e-06 +7.8302237979973339e-03 -2.2488070536317428e+00 
+2.9000000000000012e+00 -7.9209696446477275e-04 -3.6966073658974444e-06 +7.9193041476019709e-03 -2.2488068775923220e+00 
+3.0000000000000013e+00 -7.9209691426822867e-04 -3.9069191954313491e-06 +8.0083846212875547e-03 -2.2488067015537836e+00 
+3.1000000000000014e+00 -7.9209686127907654e-04 -4.1195838125335415e-06 +8.0974652189615363e-03 -2.2488065255175256e+00 
+3.2000000000000015e+00 -7.9209680546578169e-04 -4.3346015475718088e-06 +8.1865458447249514e-03 -2.2488063174882669e+00 
+3.3000000000000016e+00 -7.9209674679258356e-04 -4.5519756634144821e-06 +8.2756255227437684e-03 -2.2488057522111311e+00 
+3.4000000000000017e+00 -7.9209668522145439e-04 -4.7717109987595241e-06 +8.3647028044762685e-03 -2.2488043468419128e+00 
+3.5000000000000018e+00 -7.9209662071434218e-04 -4.9938124082190695e-06 +8.4537762367685714e-03 -2.2488016169822020e+00 
+3.6000000000000019e+00 -7.9209655323319607e-04 -5.2182847457223943e-06 +8.5428443665130725e-03 -2.2487970782611377e+00 
+3.7000000000000020e+00 -7.9209648273996448e-04 -5.4451328658583212e-06 +8.6319057406021686e-03 -2.2487902462820526e+00 
+3.8000000000000020e+00 -7.9209640919659398e-04 -5.6743616219796341e-06 +8.7209589057431550e-03 -2.2487806367012806e+00 
+3.9000000000000021e+00 -7.9209633256503351e-04 -5.9059758691602827e-06 +8.8100024088901257e-03 -2.2487677650879796e+00 
+4.0000000000000018e+00 -7.9209625280722974e-04 -6.1399804612462077e-06 +8.8990347968275017e-03 -2.2487511470733734e+00 
+4.1000000000000014e+00 -7.9209616988512935e-04 -6.3763802532283396e-06 +8.9880546163242786e-03 -2.2487302982252273e+00 
+4.2000000000000011e+00 -7.9209608376067879e-04 -6.6151800987579770e-06 +9.0770604141957225e-03 -2.2487047341796433e+00 
+4.3000000000000007e+00 -7.9209599439582505e-04 -6.8563848528549567e-06 +9.1660507372262577e-03 -2.2486739704967067e+00 
+4.4000000000000004e+00 -7.9209673543479363e-04 -7.6789453980092200e-06 +9.4287079406045558e-03 -2.1907429199595563e+00 
+4.5000000000000000e+00 -7.9210187379579009e-04 -1.1559919546420501e-05 +1.0608146458431071e-02 -1.8272058023845232e+00 
+4.5999999999999996e+00 -7.9210626469832174e-04 -1.2476860593900129e-05 +1.2286919088639015e-02 -1.4985570523353025e+00 
+4.6999999999999993e+00 -7.9210649183802321e-04 -8.5253966945007945e-06 +1.4114491769734446e-02 -1.3352662070579899e+00 
+4.7999999999999989e+00 -7.9209972189435700e-04 +1.5145709645219993e-06 +1.5879992942469837e-02 -1.4091153357309396e+00 
+4.8999999999999986e+00 -7.9208050837771906e-04 +1.9437135625999228e-05 +1.7220778564171636e-02 -1.8197727343809378e+00 
+4.9999999999999982e+00 -7.9204108309105720e-04 +4.3754652532563162e-05 +1.7594437313478716e-02 -2.5094529386923834e+00 
+5.0999999999999979e+00 -7.9198296500873318e-04 +6.9428869001005229e-05 +1.7035903676272227e-02 -3.2410475666538847e+00 
+5.1999999999999975e+00 -7.9190523079457960e-04 +9.3547028047151655e-05 +1.5499694230254235e-02 -3.8779736897176198e+00 
+5.2999999999999972e+00 -7.9180517435390309e-04 +1.1174335584882883e-04 +1.2866238247690545e-02 -4.2149196891435361e+00 
+5.3999999999999968e+00 -7.9168068261817987e-04 +1.1559380745226659e-04 +9.2656741834991029e-03 -3.8781878030846508e+00 
+5.4999999999999964e+00 -7.9154405380155092e-04 +1.0805732434895034e-04 +5.5837607147959543e-03 -3.0530479138534834e+00 
+5.5999999999999961e+00 -7.9140053093361179e-04 +9.1605488270851568e-05 +2.3256767109347183e-03 -1.9115654618020097e+00 
+5.6999999999999957e+00 -7.9125589969578287e-04 +6.9223494856255499e-05 +1.0779796991162734e-04 -6.6980685753617597e-01 
+5.7999999999999954e+00 -7.9112803517645755e-04 +5.9038259000793820e-05 +1.0990225982127502e-03 -5.2624253300370505e-01 
+5.8999999999999950e+00 -7.9100198736056196e-04 +5.0588054237291142e-05 +2.1783700701886633e-03 -4.3973344997952934e-01 
+5.9999999999999947e+00 -7.9087721071050248e-04 +4.3416475531258921e-05 +3.2263269374896378e-03 -3.6966674836207319e-01 
+6.0999999999999943e+00 -7.9075373236127758e-04 +3.7467024540382441e-05 +4.2432201178743446e-03 -3.1541350931210194e-01 
+6.1999999999999940e+00 -7.9063157635181455e-04 +3.2683275438389075e-05 +5.2292643547105352e-03 -2.7634457502347626e-01 
+6.2999999999999936e+00 -7.9051076362876116e-04 +2.9008882587128274e-05 +6.1845622294078141e-03 -2.5183055313882363e-01 
+6.3999999999999932e+00 -7.9039131205052809e-04 +2.6387588230704123e-05 +7.1091041818252890e-03 -2.4124182347351480e-01 
+6.4999999999999929e+00 -7.9027323639156125e-04 +2.4763230216790011e-05 +8.0027685374971843e-03 -2.4394854735730920e-01 
+6.5999999999999925e+00 -7.9015654834686225e-04 +2.4079749740328886e-05 +8.8653215427870538e-03 -2.5932067931814823e-01 
+6.6999999999999922e+00 -7.9004125653674455e-04 +2.4281199114038181e-05 +9.6964174069987981e-03 -2.8672798133127136e-01 
+6.7999999999999918e+00 -7.8992736651183569e-04 +2.5311749562890383e-05 +1.0495598352400841e-02 -3.2554003951408239e-01 
+6.8999999999999915e+00 -7.8981488075831514e-04 +2.7115699042202576e-05 +1.1262294671222538e-02 -3.7512628322627167e-01 
+6.9999999999999911e+00 -7.8970379870339476e-04 +2.9637480082634275e-05 +1.1995824790255249e-02 -4.3485600674713598e-01 
+7.0999999999999908e+00 -7.8959411672104018e-04 +3.2821667659594789e-05 +1.2695395342903816e-02 -5.0409839340139728e-01 
+7.1999999999999904e+00 -7.8948582813793272e-04 +3.6612987084412703e-05 +1.3360101248595904e-02 -5.8222254202199186e-01 
+7.2999999999999901e+00 -7.8937892323967176e-04 +4.0956321925555107e-05 +1.3988925799595472e-02 -6.6859749613366737e-01 
+7.3999999999999897e+00 -7.8927338927721707e-04 +4.5796721949239187e-05 +1.4580740755266663e-02 -7.6259227533998641e-01 
+7.4999999999999893e+00 -7.8916921047357405e-04 +5.1079411089301905e-05 +1.5134306443726382e-02 -8.6357590941478035e-01 
+7.5999999999999890e+00 -7.8906636803071609e-04 +5.6749795438748589e-05 +1.5648271870931884e-02 -9.7091747469950884e-01 
+7.6999999999999886e+00 -7.8896484013675191e-04 +6.2753471267131317e-05 +1.6121174837157057e-02 -1.0839861330310769e+00 
+7.7999999999999883e+00 -7.8886460197332895e-04 +6.9036233063552393e-05 +1.6551442060919120e-02 -1.2021511731868686e+00 
+7.8999999999999879e+00 -7.8876562572328219e-04 +7.5544081603304104e-05 +1.6937389310355714e-02 -1.3247820547322413e+00 
+7.9999999999999876e+00 -7.8866788057851891e-04 +8.2223232038948550e-05 +1.7277221541805630e-02 -1.4512484543312210e+00 
+8.0999999999999872e+00 -7.8857133274814919e-04 +8.9020122018321850e-05 +1.7569033046210141e-02 -1.5809203146521582e+00 
+8.1999999999999869e+00 -7.8847594546685061e-04 +9.5881419824909252e-05 +1.7810807602409402e-02 -1.7131678955792453e+00 
+8.2999999999999865e+00 -7.8838167900348213e-04 +1.0275403254439727e-04 +1.8000418638413767e-02 -1.8473618280211421e+00 
+8.3999999999999861e+00 -7.8828849066993020e-04 +1.0958511425554691e-04 +1.8135629399570193e-02 -1.9828731701276576e+00 
+8.4999999999999858e+00 -7.8819633865519255e-04 +1.1631941800221622e-04 +1.8214889997649773e-02 -2.1188078416407432e+00 
+8.5999999999999854e+00 -7.8810520437454094e-04 +1.2288418321710013e-04 +1.8242096694249650e-02 -2.2524526161458516e+00 
+8.6999999999999851e+00 -7.8801507283461462e-04 +1.2921138506054192e-04 +1.8224800709595351e-02 -2.3805795357596700e+00 
+8.7999999999999847e+00 -7.8792591137722041e-04 +1.3525559573267587e-04 +1.8171756635438994e-02 -2.5006405011083963e+00 
+8.8999999999999844e+00 -7.8783765529935612e-04 +1.4099922490994104e-04 +1.8091126916330327e-02 -2.6112410429029698e+00 
+8.9999999999999840e+00 -7.8775020299928333e-04 +1.4644640553314239e-04 +1.7989517068600622e-02 -2.7119662169015224e+00 
+9.0999999999999837e+00 -7.8766341967485473e-04 +1.5161342980447905e-04 +1.7871832680340014e-02 -2.8029672340734542e+00 
+9.1999999999999833e+00 -7.8757714374191390e-04 +1.5652111178142257e-04 +1.7741487594208800e-02 -2.8846109796183224e+00 
+9.2999999999999829e+00 -7.8749119510922356e-04 +1.6118922330218420e-04 +1.7600824862697650e-02 -2.9572167364687245e+00 
+9.3999999999999826e+00 -7.8740538425821707e-04 +1.6563458098661242e-04 +1.7451639696307589e-02 -3.0209656306975150e+00 
+9.4999999999999822e+00 -7.8731951858636946e-04 +1.6987204075372069e-04 +1.7295532131730382e-02 -3.0759483603525011e+00 
+9.5999999999999819e+00 -7.8723340541433451e-04 +1.7391560066150479e-04 +1.7134057161188529e-02 -3.1222160044367264e+00 
+9.6999999999999815e+00 -7.8714685289395193e-04 +1.7777891205594083e-04 +1.6968776634891245e-02 -3.1598059659108646e+00 
+9.7999999999999812e+00 -7.8705966982393807e-04 +1.8147467701303923e-04 +1.6801375853503078e-02 -3.1887389083160147e+00 
+9.8999999999999808e+00 -7.8697166922504324e-04 +1.8501739583998272e-04 +1.6634345030089991e-02 -3.2092669746628388e+00 
+9.9999999999999805e+00 -7.8688266764501841e-04 +1.8842301992382426e-04 +1.6470802035934425e-02 -3.2218255302605474e+00 
+1.0099999999999980e+01 -7.8679248256002734e-04 +1.9170715105526576e-04 +1.6313953783526063e-02 -3.2268536259562492e+00 
+1.0199999999999980e+01 -7.8670093229743564e-04 +1.9488499178359363e-04 +1.6167082934104890e-02 -3.2247895673215523e+00 
+1.0299999999999979e+01 -7.8660783602117659e-04 +1.9797133932038043e-04 +1.6033547671356931e-02 -3.2160708389770911e+00 
+1.0399999999999979e+01 -7.8651301371692806e-04 +2.0098057942248175e-04 +1.5916781467104228e-02 -3.2011340266529125e+00 
+1.0499999999999979e+01 -7.8641628386740068e-04 +2.0392828422098407e-04 +1.5819811648382739e-02 -3.1805751339565078e+00 
+1.0599999999999978e+01 -7.8631743709320150e-04 +2.0684936230019543e-04 +1.5739733916653318e-02 -3.1569798871485202e+00 
+1.0699999999999978e+01 -7.8621624970301939e-04 +2.0978012903176863e-04 +1.5668266905526140e-02 -3.1340398381611072e+00 
+1.0799999999999978e+01 -7.8611251380494775e-04 +2.1272980677278946e-04 +1.5595037148357627e-02 -3.1147310059202336e+00 
+1.0899999999999977e+01 -7.8600605996818537e-04 +2.1566979657723409e-04 +1.5510147315789048e-02 -3.1004946905290960e+00 
+1.0999999999999977e+01 -7.8589676745065328e-04 +2.1853907349806898e-04 +1.5405669456271595e-02 -3.0913309861837837e+00 
+1.1099999999999977e+01 -7.8578456705878164e-04 +2.2125412858277487e-04 +1.5276305017182494e-02 -3.0862048507010296e+00 
+1.1199999999999976e+01 -7.8566944052695608e-04 +2.2372020777925954e-04 +1.5119626012930537e-02 -3.0835548756997082e+00 
+1.1299999999999976e+01 -7.8555141748980174e-04 +2.2584316240486412e-04 +1.4935995899180194e-02 -3.0818535066900368e+00 
+1.1399999999999975e+01 -7.8543056915017257e-04 +2.2753927199044489e-04 +1.4728139580274920e-02 -3.0800712146518685e+00 
+1.1499999999999975e+01 -7.8530700281903402e-04 +2.2874220591093491e-04 +1.4500639618390473e-02 -3.0779880017161712e+00 
+1.1599999999999975e+01 -7.8518085666766824e-04 +2.2940835510077816e-04 +1.4259296631725080e-02 -3.0763972685749277e+00 
+1.1699999999999974e+01 -7.8505229269456331e-04 +2.2952016280654251e-04 +1.4010079117238753e-02 -3.0771446343315536e+00 
+1.1799999999999974e+01 -7.8492148147700958e-04 +2.2907999983277523e-04 +1.3757075308959974e-02 -3.0825628823542988e+00 
+1.1899999999999974e+01 -7.8478857442186448e-04 +2.2808405560094454e-04 +1.3499023208965158e-02 -3.0937012017984480e+00 
+1.1999999999999973e+01 -7.8465369717138449e-04 +2.2651226010163348e-04 +1.3229398212992568e-02 -3.1099031171947504e+00 
+1.2099999999999973e+01 -7.8451697283424965e-04 +2.2434436777365500e-04 +1.2941258397505427e-02 -3.1304182639459914e+00 
+1.2199999999999973e+01 -7.8437852340457258e-04 +2.2156093422409819e-04 +1.2627534836686778e-02 -3.1544991482208866e+00 
+1.2299999999999972e+01 -7.8423846979029828e-04 +2.1814332704170802e-04 +1.2281032164768042e-02 -3.1814013193557260e+00 
+1.2399999999999972e+01 -7.8409693184190070e-04 +2.1407373661131549e-04 +1.1894429155726444e-02 -3.2103835455444343e+00 
+1.2499999999999972e+01 -7.8395402892143286e-04 +2.0933481188499029e-04 +1.1460391833142016e-02 -3.2406704883429134e+00 
+1.2599999999999971e+01 -7.8380989337735810e-04 +2.0390034060121072e-04 +1.0974377000985218e-02 -3.2705191210039781e+00 
+1.2699999999999971e+01 -7.8366466995165817e-04 +1.9773841889872117e-04 +1.0435231511328847e-02 -3.2972434663746855e+00 
+1.2799999999999971e+01 -7.8351849813122754e-04 +1.9082824134005174e-04 +9.8428562691232659e-03 -3.3183791256554809e+00 
+1.2899999999999970e+01 -7.8337150742008267e-04 +1.8315960108276842e-04 +9.1969870146503940e-03 -3.3318612361736921e+00 
+1.2999999999999970e+01 -7.8322382359045158e-04 +1.7472581558733950e-04 +8.4970863460119839e-03 -3.3357621609192827e+00 
+1.3099999999999969e+01 -7.8307557946321422e-04 +1.6551786957150268e-04 +7.7427644247162622e-03 -3.3280360436183956e+00 
+1.3199999999999969e+01 -7.8292692905780679e-04 +1.5552167244157577e-04 +6.9345458163146256e-03 -3.3063892240834560e+00 
+1.3299999999999969e+01 -7.8277806120445853e-04 +1.4472216247169494e-04 +6.0746608709149295e-03 -3.2684742530715893e+00 
+1.3399999999999968e+01 -7.8262920537145288e-04 +1.3311156463766499e-04 +5.1673080443275718e-03 -3.2122802757867945e+00 
+1.3499999999999968e+01 -7.8248063122064000e-04 +1.2069656897782359e-04 +4.2184660307483558e-03 -3.1364597128538962e+00 
+1.3599999999999968e+01 -7.8233264231565699e-04 +1.0750284561087595e-04 +3.2352983095485168e-03 -3.0405119888999206e+00 
+1.3699999999999967e+01 -7.8218556250953832e-04 +9.3571731048589912e-05 +2.2251653595058152e-03 -2.9245777933363359e+00 
+1.3799999999999967e+01 -7.8203972325419774e-04 +7.8949966250812400e-05 +1.1951459112847383e-03 -2.7889691264960801e+00 
+1.3899999999999967e+01 -7.8189546287926867e-04 +6.3687154925515981e-05 +1.5298129489337947e-04 -2.6342576493084797e+00 
+1.3999999999999966e+01 -7.8175313017665802e-04 +4.7836997528743981e-05 -8.9183059087252910e-04 -2.4615350668447658e+00 
+1.4099999999999966e+01 -7.8161307764447680e-04 +3.1452578838324098e-05 -1.9294255464679607e-03 -2.2719469152818146e+00 
+1.4199999999999966e+01 -7.8147566060346658e-04 +1.4585768354708622e-05 -2.9497490208049149e-03 -2.0666339521829191e+00 
+1.4299999999999965e+01 -7.8134123715328438e-04 -2.7127957671162998e-06 -3.9425570230406876e-03 -1.8467318957752206e+00 
+1.4399999999999965e+01 -7.8121016812835278e-04 -2.0393722784852053e-05 -4.8974170569179003e-03 -1.6133711599798239e+00 
+1.4499999999999964e+01 -7.8108281729472278e-04 -3.8409053115071678e-05 -5.8036587756964729e-03 -1.3676598174170944e+00 
+1.4599999999999964e+01 -7.8095956962375671e-04 -5.6724995727401330e-05 -6.6465585652638257e-03 -1.1094111932846038e+00 
+1.4699999999999964e+01 -7.8084084184136375e-04 -7.5324362092003990e-05 -7.4038138495028556e-03 -8.3637401186934024e-01 
+1.4799999999999963e+01 -7.8072704218071849e-04 -9.4161279015684887e-05 -8.0488061006513695e-03 -5.4679866808658661e-01 
+1.4899999999999963e+01 -7.8061852855712099e-04 -1.1313334736450495e-04 -8.5542954031685263e-03 -2.4114330261412131e-01 
+1.4999999999999963e+01 -7.8051557241000196e-04 -1.3207213135917804e-04 -8.8955526091345823e-03 +7.7229731848608860e-02 
+1.5099999999999962e+01 -7.8041832560901453e-04 -1.5074671727221831e-04 -9.0531679420427277e-03 +4.0206023400575241e-01 
+1.5199999999999962e+01 -7.8032679018391203e-04 -1.6888352269536742e-04 -9.0155197332947162e-03 +7.2504827472114708e-01 
+1.5299999999999962e+01 -7.8024080793312998e-04 -1.8620065151961400e-04 -8.7797049221375236e-03 +1.0374717467022094e+00 
+1.5399999999999961e+01 -7.8016006336376683e-04 -2.0244055751088489e-04 -8.3512445450903295e-03 +1.3317308185946797e+00 
+1.5499999999999961e+01 -7.8008409633592362e-04 -2.1739822784943490e-04 -7.7428924680639872e-03 +1.6026505304878185e+00 
+1.5599999999999961e+01 -7.8001232750812561e-04 -2.3094165664399579e-04 -6.9722643243085086e-03 +1.8483417803415119e+00 
+1.5699999999999960e+01 -7.7994410200675458e-04 -2.4300770555747269e-04 -6.0582307382493917e-03 +2.0697821576212427e+00 
+1.5799999999999960e+01 -7.7987873178220169e-04 -2.5357870224470717e-04 -5.0176476775224367e-03 +2.2694464782029211e+00 
+1.5899999999999959e+01 -7.7981553149090695e-04 -2.6265126015794367e-04 -3.8628628671704230e-03 +2.4496060889198441e+00 
+1.5999999999999959e+01 -7.7975384210390614e-04 -2.7020498121461804e-04 -2.6008192948893064e-03 +2.6108005014768363e+00 
+1.6099999999999959e+01 -7.7969301080607655e-04 -2.7621544060743466e-04 -1.2375127548461217e-03 +2.7532418795455844e+00 
+1.6199999999999960e+01 -7.7963238632879463e-04 -2.8065744410077229e-04 +2.2103036376830098e-04 +2.8771409844344853e+00 
+1.6299999999999962e+01 -7.7957131897760145e-04 -2.8350502495691336e-04 +1.7687534046036501e-03 +2.9827070827350211e+00 
